Time(ps) Source Detector[0] Detector[1] Detector[2] Detector[3] Detector[4]
0.0000e+00 1.4017e-12 0.0000e+00 0.0000e+00 0.0000e+00 0.0000e+00 0.0000e+00
7.2219e+01 -8.5039e-27 0.0000e+00 0.0000e+00 0.0000e+00 0.0000e+00 0.0000e+00
1.4444e+02 -4.4477e-12 -1.1681e-13 0.0000e+00 0.0000e+00 0.0000e+00 0.0000e+00
2.1666e+02 -1.5430e-11 -2.7255e-13 0.0000e+00 0.0000e+00 0.0000e+00 0.0000e+00
2.8887e+02 -3.9436e-11 3.9930e-15 0.0000e+00 0.0000e+00 0.0000e+00 0.0000e+00
3.6109e+02 -8.7961e-11 1.8056e-12 0.0000e+00 0.0000e+00 0.0000e+00 0.0000e+00
4.3331e+02 -1.8049e-10 7.2161e-12 0.0000e+00 0.0000e+00 0.0000e+00 0.0000e+00
5.0553e+02 -3.4859e-10 2.0015e-11 0.0000e+00 0.0000e+00 0.0000e+00 0.0000e+00
5.7775e+02 -6.4104e-10 4.6939e-11 0.0000e+00 0.0000e+00 0.0000e+00 0.0000e+00
6.4997e+02 -1.1292e-09 9.9703e-11 0.0000e+00 0.0000e+00 0.0000e+00 0.0000e+00
7.2219e+02 -1.9108e-09 1.9793e-10 0.0000e+00 0.0000e+00 0.0000e+00 0.0000e+00
7.9441e+02 -3.1069e-09 3.7303e-10 0.0000e+00 0.0000e+00 0.0000e+00 0.0000e+00
8.6662e+02 -4.8447e-09 6.7279e-10 0.0000e+00 0.0000e+00 0.0000e+00 0.0000e+00
9.3884e+02 -7.2105e-09 1.1659e-09 0.0000e+00 0.0000e+00 0.0000e+00 0.0000e+00
1.0111e+03 -1.0147e-08 1.9440e-09 0.0000e+00 0.0000e+00 0.0000e+00 0.0000e+00
1.0833e+03 -1.3258e-08 3.1172e-09 0.0000e+00 0.0000e+00 0.0000e+00 0.0000e+00
1.1555e+03 -1.5463e-08 4.7938e-09 0.0000e+00 0.0000e+00 0.0000e+00 0.0000e+00
1.2277e+03 -1.4423e-08 7.0300e-09 0.0000e+00 0.0000e+00 0.0000e+00 0.0000e+00
1.2999e+03 -5.6368e-09 9.7245e-09 0.0000e+00 0.0000e+00 0.0000e+00 0.0000e+00
1.3722e+03 1.8906e-08 1.2422e-08 0.0000e+00 0.0000e+00 0.0000e+00 0.0000e+00
1.4444e+03 7.2632e-08 1.3969e-08 0.0000e+00 0.0000e+00 0.0000e+00 0.0000e+00
1.5166e+03 1.7692e-07 1.1951e-08 0.0000e+00 0.0000e+00 0.0000e+00 0.0000e+00
1.5888e+03 3.6426e-07 1.8116e-09 0.0000e+00 0.0000e+00 0.0000e+00 0.0000e+00
1.6610e+03 6.8169e-07 -2.4448e-08 0.0000e+00 0.0000e+00 0.0000e+00 0.0000e+00
1.7332e+03 1.1941e-06 -8.0108e-08 0.0000e+00 0.0000e+00 0.0000e+00 0.0000e+00
1.8055e+03 1.9856e-06 -1.8616e-07 0.0000e+00 0.0000e+00 0.0000e+00 0.0000e+00
1.8777e+03 3.1583e-06 -3.7433e-07 0.0000e+00 0.0000e+00 0.0000e+00 0.0000e+00
1.9499e+03 4.8224e-06 -6.9038e-07 0.0000e+00 0.0000e+00 0.0000e+00 0.0000e+00
2.0221e+03 7.0765e-06 -1.1973e-06 0.0000e+00 0.0000e+00 0.0000e+00 0.0000e+00
2.0943e+03 9.9678e-06 -1.9769e-06 0.0000e+00 0.0000e+00 0.0000e+00 0.0000e+00
2.1666e+03 1.3427e-05 -3.1284e-06 0.0000e+00 0.0000e+00 0.0000e+00 0.0000e+00
2.2388e+03 1.7163e-05 -4.7604e-06 0.0000e+00 0.0000e+00 0.0000e+00 0.0000e+00
2.3110e+03 2.0519e-05 -6.9721e-06 0.0000e+00 0.0000e+00 0.0000e+00 0.0000e+00
2.3832e+03 2.2261e-05 -9.8176e-06 0.0000e+00 0.0000e+00 0.0000e+00 0.0000e+00
2.4554e+03 2.0316e-05 -1.3245e-05 0.0000e+00 0.0000e+00 0.0000e+00 0.0000e+00
2.5277e+03 1.1450e-05 -1.7001e-05 0.0000e+00 0.0000e+00 0.0000e+00 0.0000e+00
2.5999e+03 -9.0892e-06 -2.0493e-05 0.0000e+00 0.0000e+00 0.0000e+00 0.0000e+00
2.6721e+03 -4.7921e-05 -2.2594e-05 0.0000e+00 0.0000e+00 0.0000e+00 0.0000e+00
2.7443e+03 -1.1381e-04 -2.1387e-05 0.0000e+00 0.0000e+00 0.0000e+00 0.0000e+00
2.8165e+03 -2.1774e-04 -1.3861e-05 0.0000e+00 0.0000e+00 0.0000e+00 0.0000e+00
2.8887e+03 -3.7271e-04 4.4558e-06 0.0000e+00 0.0000e+00 0.0000e+00 0.0000e+00
2.9610e+03 -5.9292e-04 3.9859e-05 0.0000e+00 0.0000e+00 0.0000e+00 0.0000e+00
3.0332e+03 -8.9227e-04 1.0079e-04 0.0000e+00 0.0000e+00 0.0000e+00 0.0000e+00
3.1054e+03 -1.2819e-03 1.9805e-04 0.0000e+00 0.0000e+00 0.0000e+00 0.0000e+00
3.1776e+03 -1.7665e-03 3.4468e-04 0.0000e+00 0.0000e+00 0.0000e+00 0.0000e+00
3.2498e+03 -2.3391e-03 5.5550e-04 0.0000e+00 0.0000e+00 0.0000e+00 0.0000e+00
3.3221e+03 -2.9751e-03 8.4594e-04 0.0000e+00 0.0000e+00 0.0000e+00 0.0000e+00
3.3943e+03 -3.6241e-03 1.2301e-03 0.0000e+00 0.0000e+00 0.0000e+00 0.0000e+00
3.4665e+03 -4.2022e-03 1.7174e-03 0.0000e+00 0.0000e+00 0.0000e+00 0.0000e+00
3.5387e+03 -4.5835e-03 2.3088e-03 0.0000e+00 0.0000e+00 0.0000e+00 0.0000e+00
3.6109e+03 -4.5932e-03 2.9903e-03 0.0000e+00 0.0000e+00 0.0000e+00 0.0000e+00
3.6832e+03 -4.0041e-03 3.7265e-03 0.0000e+00 0.0000e+00 0.0000e+00 0.0000e+00
3.7554e+03 -2.5374e-03 4.4522e-03 0.0000e+00 0.0000e+00 0.0000e+00 0.0000e+00
3.8276e+03 1.2896e-04 5.0640e-03 0.0000e+00 0.0000e+00 0.0000e+00 0.0000e+00
3.8998e+03 4.3434e-03 5.4119e-03 0.0000e+00 0.0000e+00 0.0000e+00 0.0000e+00
3.9720e+03 1.0452e-02 5.2930e-03 0.0000e+00 0.0000e+00 0.0000e+00 0.0000e+00
4.0442e+03 1.8760e-02 4.4484e-03 0.0000e+00 0.0000e+00 0.0000e+00 0.0000e+00
4.1165e+03 2.9478e-02 2.5649e-03 0.0000e+00 0.0000e+00 0.0000e+00 0.0000e+00
4.1887e+03 4.2665e-02 -7.1566e-04 0.0000e+00 0.0000e+00 0.0000e+00 0.0000e+00
4.2609e+03 5.8156e-02 -5.7786e-03 0.0000e+00 0.0000e+00 0.0000e+00 0.0000e+00
4.3331e+03 7.5504e-02 -1.3008e-02 0.0000e+00 0.0000e+00 0.0000e+00 0.0000e+00
4.4053e+03 9.3916e-02 -2.2746e-02 0.0000e+00 0.0000e+00 0.0000e+00 0.0000e+00
4.4776e+03 1.1222e-01 -3.5246e-02 0.0000e+00 0.0000e+00 0.0000e+00 0.0000e+00
4.5498e+03 1.2884e-01 -5.0612e-02 0.0000e+00 0.0000e+00 0.0000e+00 0.0000e+00
4.6220e+03 1.4185e-01 -6.8735e-02 0.0000e+00 0.0000e+00 0.0000e+00 0.0000e+00
4.6942e+03 1.4901e-01 -8.9231e-02 0.0000e+00 0.0000e+00 0.0000e+00 0.0000e+00
4.7664e+03 1.4794e-01 -1.1139e-01 0.0000e+00 0.0000e+00 0.0000e+00 0.0000e+00
4.8387e+03 1.3624e-01 -1.3413e-01 0.0000e+00 0.0000e+00 0.0000e+00 0.0000e+00
4.9109e+03 1.1173e-01 -1.5598e-01 0.0000e+00 0.0000e+00 0.0000e+00 0.0000e+00
4.9831e+03 7.2711e-02 -1.7513e-01 0.0000e+00 0.0000e+00 0.0000e+00 0.0000e+00
5.0553e+03 1.8203e-02 -1.8941e-01 0.0000e+00 0.0000e+00 0.0000e+00 0.0000e+00
5.1275e+03 -5.1812e-02 -1.9649e-01 0.0000e+00 0.0000e+00 0.0000e+00 0.0000e+00
5.1997e+03 -1.3619e-01 -1.9394e-01 0.0000e+00 0.0000e+00 0.0000e+00 0.0000e+00
5.2720e+03 -2.3249e-01 -1.7942e-01 0.0000e+00 0.0000e+00 0.0000e+00 0.0000e+00
5.3442e+03 -3.3698e-01 -1.5091e-01 0.0000e+00 0.0000e+00 0.0000e+00 0.0000e+00
5.4164e+03 -4.4469e-01 -1.0691e-01 0.0000e+00 0.0000e+00 0.0000e+00 0.0000e+00
5.4886e+03 -5.4966e-01 -4.6622e-02 0.0000e+00 0.0000e+00 0.0000e+00 0.0000e+00
5.5608e+03 -6.4526e-01 2.9836e-02 0.0000e+00 0.0000e+00 0.0000e+00 0.0000e+00
5.6331e+03 -7.2467e-01 1.2133e-01 0.0000e+00 0.0000e+00 0.0000e+00 0.0000e+00
5.7053e+03 -7.8135e-01 2.2565e-01 0.0000e+00 0.0000e+00 0.0000e+00 0.0000e+00
5.7775e+03 -8.0963e-01 3.3952e-01 0.0000e+00 0.0000e+00 0.0000e+00 0.0000e+00
5.8497e+03 -8.0522e-01 4.5873e-01 0.0000e+00 0.0000e+00 0.0000e+00 0.0000e+00
5.9219e+03 -7.6566e-01 5.7831e-01 0.0000e+00 0.0000e+00 0.0000e+00 0.0000e+00
5.9942e+03 -6.9064e-01 6.9286e-01 0.0000e+00 0.0000e+00 0.0000e+00 0.0000e+00
6.0664e+03 -5.8217e-01 7.9685e-01 0.0000e+00 0.0000e+00 0.0000e+00 0.0000e+00
6.1386e+03 -4.4456e-01 8.8502e-01 0.0000e+00 0.0000e+00 0.0000e+00 0.0000e+00
6.2108e+03 -2.8415e-01 9.5273e-01 0.0000e+00 0.0000e+00 0.0000e+00 0.0000e+00
6.2830e+03 -1.0894e-01 9.9632e-01 0.0000e+00 0.0000e+00 0.0000e+00 0.0000e+00
6.3552e+03 7.1991e-02 1.0134e+00 0.0000e+00 0.0000e+00 0.0000e+00 0.0000e+00
6.4275e+03 2.4914e-01 1.0030e+00 0.0000e+00 0.0000e+00 0.0000e+00 0.0000e+00
6.4997e+03 4.1328e-01 9.6568e-01 0.0000e+00 0.0000e+00 0.0000e+00 0.0000e+00
6.5719e+03 5.5615e-01 9.0346e-01 0.0000e+00 0.0000e+00 0.0000e+00 0.0000e+00
6.6441e+03 6.7101e-01 8.1968e-01 0.0000e+00 0.0000e+00 0.0000e+00 0.0000e+00
6.7163e+03 7.5313e-01 7.1876e-01 0.0000e+00 0.0000e+00 0.0000e+00 0.0000e+00
6.7886e+03 8.0001e-01 6.0586e-01 0.0000e+00 0.0000e+00 0.0000e+00 0.0000e+00
6.8608e+03 8.1150e-01 4.8650e-01 0.0000e+00 0.0000e+00 0.0000e+00 0.0000e+00
6.9330e+03 7.8963e-01 3.6620e-01 0.0000e+00 0.0000e+00 0.0000e+00 0.0000e+00
7.0052e+03 7.3835e-01 2.5010e-01 0.0000e+00 0.0000e+00 0.0000e+00 0.0000e+00
7.0774e+03 6.6309e-01 1.4268e-01 0.0000e+00 0.0000e+00 0.0000e+00 0.0000e+00
7.1497e+03 5.7025e-01 4.7504e-02 0.0000e+00 0.0000e+00 0.0000e+00 0.0000e+00
7.2219e+03 4.6665e-01 -3.2921e-02 0.0000e+00 0.0000e+00 0.0000e+00 0.0000e+00
7.2941e+03 3.5899e-01 -9.7177e-02 0.0000e+00 -1.6925e-120 0.0000e+00 0.0000e+00
7.3663e+03 2.5340e-01 -1.4491e-01 -1.4104e-121 -2.5500e-118 0.0000e+00 0.0000e+00
7.4385e+03 1.5507e-01 -1.7673e-01 -2.0310e-119 -1.9467e-116 0.0000e+00 0.0000e+00
7.5107e+03 6.8006e-02 -1.9400e-01 -1.4772e-117 -1.0041e-114 0.0000e+00 0.0000e+00
7.5830e+03 -5.0890e-03 -1.9870e-01 -7.2385e-116 -3.9367e-113 0.0000e+00 0.0000e+00
7.6552e+03 -6.2812e-02 -1.9313e-01 -2.6891e-114 -1.2512e-111 0.0000e+00 0.0000e+00
7.7274e+03 -1.0495e-01 -1.7978e-01 -8.0809e-113 -3.3576e-110 0.0000e+00 0.0000e+00
7.7996e+03 -1.3232e-01 -1.6105e-01 -2.0463e-111 -7.8218e-109 0.0000e+00 0.0000e+00
7.8718e+03 -1.4648e-01 -1.3920e-01 -4.4917e-110 -1.6142e-107 0.0000e+00 0.0000e+00
7.9441e+03 -1.4954e-01 -1.1616e-01 -8.7245e-109 -2.9967e-106 0.0000e+00 0.0000e+00
8.0163e+03 -1.4387e-01 -9.3486e-02 -1.5232e-107 -5.0646e-105 0.0000e+00 0.0000e+00
8.0885e+03 -1.3187e-01 -7.2363e-02 -2.4200e-106 -7.8669e-104 0.0000e+00 0.0000e+00
8.1607e+03 -1.1582e-01 -5.3576e-02 -3.5336e-105 -1.1319e-102 0.0000e+00 0.0000e+00
8.2329e+03 -9.7724e-02 -3.7567e-02 -4.7805e-104 -1.5184e-101 0.0000e+00 0.0000e+00
8.3052e+03 -7.9226e-02 -2.4485e-02 -6.0330e-103 -1.9093e-100 0.0000e+00 0.0000e+00
8.3774e+03 -6.1583e-02 -1.4248e-02 -7.1427e-102 -2.2609e-99 0.0000e+00 0.0000e+00
8.4496e+03 -4.5664e-02 -6.6139e-03 -7.9725e-101 -2.5313e-98 0.0000e+00 0.0000e+00
8.5218e+03 -3.1983e-02 -1.2379e-03 -8.4244e-100 -2.6889e-97 0.0000e+00 0.0000e+00
8.5940e+03 -2.0757e-02 2.2726e-03 -8.4583e-99 -2.7181e-96 0.0000e+00 0.0000e+00
8.6662e+03 -1.1968e-02 4.3155e-03 -8.0951e-98 -2.6219e-95 0.0000e+00 0.0000e+00
8.7385e+03 -5.4309e-03 5.2634e-03 -7.4056e-97 -2.4191e-94 0.0000e+00 0.0000e+00
8.8107e+03 -8.5548e-04 5.4433e-03 -6.4921e-96 -2.1395e-93 0.0000e+00 0.0000e+00
8.8829e+03 2.0996e-03 5.1266e-03 -5.4657e-95 -1.8173e-92 0.0000e+00 0.0000e+00
8.9551e+03 3.7848e-03 4.5262e-03 -4.4279e-94 -1.4852e-91 0.0000e+00 0.0000e+00
9.0273e+03 4.5295e-03 3.8000e-03 -3.4579e-93 -1.1697e-90 0.0000e+00 0.0000e+00
9.0996e+03 4.6224e-03 3.0570e-03 -2.6072e-92 -8.8909e-90 0.0000e+00 0.0000e+00
9.1718e+03 4.3014e-03 2.3661e-03 -1.9006e-91 -6.5310e-89 0.0000e+00 0.0000e+00
9.2440e+03 3.7519e-03 1.7649e-03 -1.3413e-90 -4.6422e-88 0.0000e+00 0.0000e+00
9.3162e+03 3.1093e-03 1.2687e-03 -9.1756e-90 -3.1965e-87 0.0000e+00 0.0000e+00
9.3884e+03 2.4656e-03 8.7693e-04 -6.0903e-89 -2.1346e-86 0.0000e+00 0.0000e+00
9.4607e+03 1.8772e-03 5.8025e-04 -3.9264e-88 -1.3839e-85 0.0000e+00 0.0000e+00
9.5329e+03 1.3736e-03 3.6441e-04 -2.4609e-87 -8.7175e-85 0.0000e+00 0.0000e+00
9.6051e+03 9.6454e-04 2.1377e-04 -1.5007e-86 -5.3407e-84 0.0000e+00 0.0000e+00
9.6773e+03 6.4743e-04 1.1328e-04 -8.9114e-86 -3.1847e-83 1.5572e-117 -1.5572e-117
9.7495e+03 4.1208e-04 4.9720e-05 -5.1567e-85 -1.8499e-82 3.1170e-115 -3.1118e-115
9.8217e+03 2.4491e-04 1.2156e-05 -2.9098e-84 -1.0474e-81 3.1416e-113 -3.1317e-113
9.8940e+03 1.3162e-04 -7.9443e-06 -1.6021e-83 -5.7848e-81 2.1259e-111 -2.1165e-111
9.9662e+03 5.8900e-05 -1.6938e-05 -8.6124e-83 -3.1184e-80 1.0867e-109 -1.0807e-109
1.0038e+04 1.5308e-05 -1.9336e-05 -4.5226e-82 -1.6417e-79 4.4755e-108 -4.4464e-108
1.0111e+04 -8.3762e-06 -1.8185e-05 -2.3212e-81 -8.4448e-79 1.5468e-106 -1.5355e-106
1.0183e+04 -1.9193e-05 -1.5431e-05 -1.1649e-80 -4.2468e-78 4.6139e-105 -4.5773e-105
1.0255e+04 -2.2249e-05 -1.2231e-05 -5.7191e-80 -2.0888e-77 1.2123e-103 -1.2021e-103
1.0327e+04 -2.1062e-05 -9.2079e-06 -2.7478e-79 -1.0053e-76 2.8499e-102 -2.8247e-102
1.0399e+04 -1.7913e-05 -6.6448e-06 -1.2925e-78 -4.7355e-76 6.0671e-101 -6.0117e-101
1.0472e+04 -1.4185e-05 -4.6207e-06 -5.9539e-78 -2.1843e-75 1.1812e-99 -1.1702e-99
1.0544e+04 -1.0636e-05 -3.1055e-06 -2.6866e-77 -9.8685e-75 2.1199e-98 -2.0999e-98
1.0616e+04 -7.6175e-06 -2.0198e-06 -1.1878e-76 -4.3679e-74 3.5309e-97 -3.4973e-97
1.0688e+04 -5.2340e-06 -1.2711e-06 -5.1467e-76 -1.8944e-73 5.4887e-96 -5.4364e-96
1.0761e+04 -3.4559e-06 -7.7216e-07 -2.1857e-75 -8.0521e-73 8.0014e-95 -7.9252e-95
1.0833e+04 -2.1915e-06 -4.5039e-07 -9.0982e-75 -3.3544e-72 1.0985e-93 -1.0880e-93
1.0905e+04 -1.3305e-06 -2.4946e-07 -3.7122e-74 -1.3696e-71 1.4253e-92 -1.4119e-92
1.0977e+04 -7.6841e-07 -1.2835e-07 -1.4845e-73 -5.4804e-71 1.7537e-91 -1.7372e-91
1.1049e+04 -4.1691e-07 -5.8509e-08 -5.8174e-73 -2.1487e-70 2.0517e-90 -2.0327e-90
1.1122e+04 -2.0727e-07 -2.0803e-08 -2.2331e-72 -8.2521e-70 2.2885e-89 -2.2675e-89
1.1194e+04 -8.9020e-08 -2.6613e-09 -8.3933e-72 -3.1028e-69 2.4392e-88 -2.4169e-88
1.1266e+04 -2.6981e-08 4.1214e-09 -3.0865e-71 -1.1413e-68 2.4895e-87 -2.4669e-87
1.1338e+04 2.2335e-09 4.9301e-09 -1.1093e-70 -4.1032e-68 2.4375e-86 -2.4156e-86
1.1411e+04 1.3453e-08 3.2829e-09 -3.8914e-70 -1.4396e-67 2.2936e-85 -2.2731e-85
1.1483e+04 1.5622e-08 1.3620e-09 -1.3294e-69 -4.9188e-67 2.0774e-84 -2.0590e-84
1.1555e+04 1.3837e-08 3.0513e-10 -4.4101e-69 -1.6318e-66 1.8139e-83 -1.7979e-83
1.1627e+04 1.0793e-08 4.1721e-10 -1.4140e-68 -5.2317e-66 1.5287e-82 -1.5153e-82
1.1699e+04 7.7725e-09 1.4001e-09 -4.3505e-68 -1.6094e-65 1.2453e-81 -1.2344e-81
1.1772e+04 5.2776e-09 2.6288e-09 -1.2687e-67 -4.6919e-65 9.8156e-81 -9.7302e-81
1.1844e+04 3.4152e-09 3.4458e-09 -3.4266e-67 -1.2665e-64 7.4946e-80 -7.4296e-80
1.1916e+04 2.1180e-09 3.4095e-09 -8.1354e-67 -3.0032e-64 5.5488e-79 -5.5008e-79
1.1988e+04 1.2619e-09 2.4385e-09 -1.4392e-66 -5.2940e-64 3.9874e-78 -3.9530e-78
1.2061e+04 7.2241e-10 8.1680e-10 -8.6281e-68 -1.9161e-65 2.7836e-77 -2.7596e-77
1.2133e+04 3.9646e-10 -9.2916e-10 1.6484e-65 6.1483e-63 1.8893e-76 -1.8731e-76
1.2205e+04 2.0749e-10 -2.2303e-09 1.1257e-64 4.1828e-62 1.2477e-75 -1.2370e-75
1.2277e+04 1.0252e-10 -2.6795e-09 5.6651e-64 2.1022e-61 8.0238e-75 -7.9550e-75
1.2349e+04 4.6891e-11 -2.1700e-09 2.5020e-63 9.2765e-61 5.0278e-74 -4.9848e-74
1.2422e+04 1.9005e-11 -9.2329e-10 1.0238e-62 3.7937e-60 3.0719e-73 -3.0456e-73
1.2494e+04 6.0095e-12 5.9841e-10 3.9768e-62 1.4728e-59 1.8311e-72 -1.8155e-72
1.2566e+04 5.8132e-13 1.8590e-09 1.4854e-61 5.4985e-59 1.0655e-71 -1.0564e-71
1.2638e+04 -1.2584e-12 2.4347e-09 5.3766e-61 1.9894e-58 6.0560e-71 -6.0041e-71
1.2710e+04 -1.5590e-12 2.1539e-09 1.8956e-60 7.0107e-58 3.3635e-70 -3.3347e-70
1.2783e+04 -1.3084e-12 1.1459e-09 6.5326e-60 2.4149e-57 1.8263e-69 -1.8107e-69
1.2855e+04 -9.4014e-13 -2.1624e-10 2.2061e-59 8.1513e-57 9.6997e-69 -9.6165e-69
1.2927e+04 -6.1695e-13 -1.4526e-09 7.3143e-59 2.7013e-56 5.0408e-68 -4.9975e-68
1.2999e+04 -3.7976e-13 -2.1451e-09 2.3845e-58 8.8021e-56 2.5642e-67 -2.5422e-67
1.3072e+04 -2.2217e-13 -2.0779e-09 7.6523e-58 2.8234e-55 1.2773e-66 -1.2663e-66
1.3144e+04 -1.2440e-13 -1.3029e-09 2.4199e-57 8.9236e-55 6.2324e-66 -6.1786e-66
1.3216e+04 -6.6880e-14 -1.1166e-10 7.5462e-57 2.7813e-54 2.9795e-65 -2.9538e-65
1.3288e+04 -3.4555e-14 1.0737e-09 2.3222e-56 8.5542e-54 1.3960e-64 -1.3839e-64
1.3360e+04 -1.7133e-14 1.8491e-09 7.0560e-56 2.5977e-53 6.4118e-64 -6.3563e-64
1.3433e+04 -8.1179e-15 1.9657e-09 2.1179e-55 7.7928e-53 2.8874e-63 -2.8623e-63
1.3505e+04 -3.6458e-15 1.4084e-09 6.2828e-55 2.3104e-52 1.2750e-62 -1.2639e-62
1.3577e+04 -1.5276e-15 3.9208e-10 1.8427e-54 6.7720e-52 5.5214e-62 -5.4733e-62
1.3649e+04 -5.7775e-16 -7.2046e-10 5.3453e-54 1.9632e-51 2.3450e-61 -2.3245e-61
1.3722e+04 -1.8094e-16 -1.5473e-09 1.5340e-53 5.6304e-51 9.7678e-61 -9.6823e-61
1.3794e+04 -3.1748e-17 -1.8178e-09 4.3567e-53 1.5980e-50 3.9899e-60 -3.9549e-60
1.3866e+04 1.4340e-17 -1.4605e-09 1.2248e-52 4.4895e-50 1.5980e-59 -1.5839e-59
1.3938e+04 2.1910e-17 -6.1964e-10 3.4094e-52 1.2488e-49 6.2738e-59 -6.2184e-59
1.4010e+04 1.7758e-17 4.0190e-10 9.3984e-52 3.4401e-49 2.4135e-58 -2.3921e-58
1.4083e+04 1.1826e-17 1.2510e-09 2.5663e-51 9.3867e-49 9.0921e-58 -9.0113e-58
1.4155e+04 7.0905e-18 1.6458e-09 6.9426e-51 2.5375e-48 3.3517e-57 -3.3218e-57
1.4227e+04 3.9617e-18 1.4689e-09 1.8611e-50 6.7971e-48 1.2077e-56 -1.1969e-56
1.4299e+04 2.0969e-18 8.0043e-10 4.9445e-50 1.8045e-47 4.2473e-56 -4.2090e-56
1.4372e+04 1.0603e-18 -1.1567e-10 1.3021e-49 4.7483e-47 1.4546e-55 -1.4414e-55
1.4444e+04 5.1445e-19 -9.6055e-10 3.3996e-49 1.2387e-46 4.8366e-55 -4.7925e-55
1.4516e+04 2.3986e-19 -1.4508e-09 8.8005e-49 3.2041e-46 1.5540e-54 -1.5397e-54
1.4588e+04 1.0740e-19 -1.4329e-09 2.2592e-48 8.2184e-46 4.7890e-54 -4.7446e-54
1.4660e+04 4.6033e-20 -9.3067e-10 5.7520e-48 2.0907e-45 1.3980e-53 -1.3849e-53
1.4733e+04 1.8762e-20 -1.3058e-10 1.4527e-47 5.2756e-45 3.7752e-53 -3.7389e-53
1.4805e+04 7.1791e-21 6.8672e-10 3.6394e-47 1.3206e-44 8.9376e-53 -8.8484e-53
1.4877e+04 2.5136e-21 1.2446e-09 9.0465e-47 3.2797e-44 1.5610e-52 -1.5437e-52
1.4949e+04 7.5750e-22 1.3635e-09 2.2313e-46 8.0819e-44 -6.3592e-54 7.4504e-54
1.5021e+04 1.5843e-22 1.0181e-09 5.4612e-46 1.9763e-43 -1.9002e-51 1.8870e-51
1.5094e+04 -1.2921e-23 3.4082e-10 1.3266e-45 4.7964e-43 -1.2796e-50 1.2693e-50
1.5166e+04 -4.2674e-23 -4.2885e-10 3.1985e-45 1.1554e-42 -6.4101e-50 6.3565e-50
1.5238e+04 -3.4472e-23 -1.0282e-09 7.6551e-45 2.7625e-42 -2.8236e-49 2.7994e-49
1.5310e+04 -2.1455e-23 -1.2609e-09 1.8188e-44 6.5574e-42 -1.1530e-48 1.1430e-48
1.5383e+04 -1.1792e-23 -1.0606e-09 4.2905e-44 1.5453e-41 -4.4690e-48 4.4297e-48
1.5455e+04 -5.9901e-24 -5.0907e-10 1.0049e-43 3.6159e-41 -1.6652e-47 1.6504e-47
1.5527e+04 -2.8707e-24 1.9638e-10 2.3372e-43 8.4013e-41 -6.0109e-47 5.9571e-47
1.5599e+04 -1.3116e-24 8.1320e-10 5.3980e-43 1.9384e-40 -2.1124e-46 2.0934e-46
1.5671e+04 -5.7435e-25 1.1366e-09 1.2382e-42 4.4418e-40 -7.2523e-46 7.1866e-46
1.5744e+04 -2.4164e-25 1.0672e-09 2.8209e-42 1.0109e-39 -2.4385e-45 2.4163e-45
1.5816e+04 -9.7677e-26 6.4103e-10 6.3836e-42 2.2852e-39 -8.0451e-45 7.9714e-45
1.5888e+04 -3.7846e-26 1.2789e-11 1.4350e-41 5.1314e-39 -2.6081e-44 2.5841e-44
1.5960e+04 -1.3981e-26 -5.9979e-10 3.2044e-41 1.1447e-38 -8.3178e-44 8.2408e-44
1.6033e+04 -4.8732e-27 -9.9124e-10 7.1093e-41 2.5368e-38 -2.6121e-43 2.5878e-43
1.6105e+04 -1.5706e-27 -1.0370e-09 1.5671e-40 5.5855e-38 -8.0832e-43 8.0077e-43
1.6177e+04 -4.4740e-28 -7.3240e-10 3.4321e-40 1.2219e-37 -2.4666e-42 2.4435e-42
1.6249e+04 -9.8508e-29 -1.9082e-10 7.4694e-40 2.6563e-37 -7.4261e-42 7.3561e-42
1.6321e+04 -5.6515e-30 3.9850e-10 1.6154e-39 5.7380e-37 -2.2069e-41 2.1860e-41
1.6394e+04 1.1158e-29 8.3618e-10 3.4717e-39 1.2318e-36 -6.4765e-41 6.4149e-41
1.6466e+04 9.5185e-30 9.7992e-10 7.4152e-39 2.6278e-36 -1.8776e-40 1.8596e-40
1.6538e+04 5.6031e-30 7.9046e-10 1.5741e-38 5.5718e-36 -5.3790e-40 5.3274e-40
1.6610e+04 2.8352e-30 3.4152e-10 3.3214e-38 1.1742e-35 -1.5233e-39 1.5086e-39
1.6683e+04 1.3121e-30 -2.0841e-10 6.9658e-38 2.4596e-35 -4.2652e-39 4.2238e-39
1.6755e+04 5.6996e-31 -6.7179e-10 1.4522e-37 5.1213e-35 -1.1811e-38 1.1696e-38
1.6827e+04 2.3540e-31 -8.9578e-10 3.0095e-37 1.0600e-34 -3.2354e-38 3.2038e-38
1.6899e+04 9.3065e-32 -8.1241e-10 6.2000e-37 2.1810e-34 -8.7691e-38 8.6829e-38
1.6971e+04 3.5332e-32 -4.5875e-10 1.2698e-36 4.4612e-34 -2.3520e-37 2.3288e-37
1.7044e+04 1.2890e-32 3.8656e-11 2.5857e-36 9.0722e-34 -6.2440e-37 6.1820e-37
1.7116e+04 4.5125e-33 5.0887e-10 5.2347e-36 1.8342e-33 -1.6410e-36 1.6246e-36
1.7188e+04 1.5093e-33 7.9511e-10 1.0537e-35 3.6872e-33 -4.2698e-36 4.2270e-36
1.7260e+04 4.7828e-34 8.0681e-10 2.1088e-35 7.3696e-33 -1.1002e-35 1.0891e-35
1.7332e+04 1.4128e-34 5.4801e-10 4.1967e-35 1.4646e-32 -2.8075e-35 2.7790e-35
1.7405e+04 3.7598e-35 1.1318e-10 8.3048e-35 2.8942e-32 -7.0961e-35 7.0239e-35
1.7477e+04 8.2372e-36 -3.4700e-10 1.6342e-34 5.6872e-32 -1.7768e-34 1.7586e-34
1.7549e+04 9.7120e-37 -6.7773e-10 3.1978e-34 1.1113e-31 -4.4077e-34 4.3624e-34
1.7621e+04 -3.6163e-37 -7.7194e-10 6.2228e-34 2.1594e-31 -1.0834e-33 1.0722e-33
1.7694e+04 -3.7064e-37 -6.0478e-10 1.2042e-33 4.1728e-31 -2.6390e-33 2.6115e-33
1.7766e+04 -2.1013e-37 -2.3955e-10 2.3176e-33 8.0189e-31 -6.3703e-33 6.3037e-33
1.7838e+04 -9.8461e-38 1.9598e-10 4.4360e-33 1.5325e-30 -1.5242e-32 1.5081e-32
1.7910e+04 -4.1617e-38 5.5412e-10 8.4441e-33 2.9128e-30 -3.6147e-32 3.5764e-32
1.7982e+04 -1.6407e-38 7.1720e-10 1.5986e-32 5.5059e-30 -8.4982e-32 8.4077e-32
1.8055e+04 -6.1299e-39 6.3605e-10 3.0101e-32 1.0351e-29 -1.9808e-31 1.9595e-31
